# === DATA DESCRIPTION FILE ======================================================
#
# CAUTION - Investigational device.
# Limited by Federal Law to investigational use.
#
# Dataset name: E:\Export\R11_Test T2W_TSE_3_1
#
# CLINICAL TRYOUT             Research image export tool     V4.2
#
# === GENERAL INFORMATION ========================================================
#
.    Patient name                       :   Phantom 
.    Examination name                   :   R11_Test 
.    Protocol name                      :   WIP T2W_TSE 
.    Examination date/time              :   2025.09.01 / 16:53:36.9758980 
.    Series Type                        :   Image   MRSERIES 
.    Acquisition nr                     :   3 
.    Reconstruction nr                  :   1 
.    Scan Duration [sec]                :   137.93 
.    Max. number of cardiac phases      :   1 
.    Max. number of echoes              :   1 
.    Max. number of slices/locations    :   81 
.    Max. number of dynamics            :   1 
.    Max. number of mixes               :   1 
.    Patient position                   :   Head First Supine 
.    Preparation direction              :   Feet-Head 
.    Technique                          :   TSE 
.    Scan resolution  (x, y)            :   192  188 
.    Scan mode                          :   MS 
.    Repetition time [ms]               :   34481.420
.    FOV (ap,fh,rl) [mm]                :   81.000  192.000  192.000 
.    Water Fat shift [pixels]           :   0.547 
.    Angulation midslice(ap,fh,rl)[degr]:   0.000  0.000  0.000 
.    Off Centre midslice(ap,fh,rl) [mm] :   -27.498  -10.593  8.540 
.    Flow compensation <0=no 1=yes> ?   :   0 
.    Presaturation     <0=no 1=yes> ?   :   0 
.    Phase encoding velocity [cm/sec]   :   0.000000  0.000000  0.000000   
.    MTC               <0=no 1=yes> ?   :   0 
.    SPIR              <0=no 1=yes> ?   :   1 
.    EPI factor        <0,1=no EPI>     :   1 
.    Dynamic scan      <0=no 1=yes> ?   :   0 
.    Diffusion         <0=no 1=yes> ?   :   0 
.    Diffusion echo time [ms]           :   0.0000 
.    Max. number of Diffusion values    :   1 
.    Max. number of gradient orients    :   1 
.    Number of label types   <0=no ASL> :   0 
# 
# === PIXEL VALUES ============================================================= 
#  PV = pixel value in REC file, FP = floating point value, DV = displayed value on console 
#  RS = rescale slope,           RI = rescale intercept,            SS = scale slope 
#  DV = PV * RS + RI             FP = DV / (RS * SS) 
# 
# === IMAGE INFORMATION DEFINITION ============================================= 
#  The rest of this file contains ONE line per image, this line contains the following information: 
# 
#  slice number                             (integer) 
#  echo number                              (integer) 
#  dynamic scan number                      (integer) 
#  cardiac phase number                     (integer) 
#  image_type_mr                            (integer) 
#  scanning sequence                        (integer) 
#  index in REC file (in images)            (integer) 
#  image pixel size (in bits)               (integer) 
#  scan percentage                          (integer) 
#  recon resolution (x y)                   (2*integer) 
#  rescale intercept                        (float) 
#  rescale slope                            (float) 
#  scale slope                              (float) 
#  window center                            (integer) 
#  window width                             (integer) 
#  image angulation (ap,fh,rl in degrees )  (3*float) 
#  image offcentre (ap,fh,rl in mm )        (3*float) 
#  slice thickness (in mm )                 (float) 
#  slice gap (in mm )                       (float) 
#  image_display_orientation                (integer) 
#  slice orientation ( TRA/SAG/COR )        (integer) 
#  fmri_status_indication                   (integer) 
#  image_type_ed_es  (end diast/end syst)   (integer) 
#  pixel spacing (x,y) (in mm)              (2*float) 
#  echo_time                                (float) 
#  dyn_scan_begin_time                      (float) 
#  trigger_time                             (float) 
#  diffusion_b_factor                       (float) 
#  number of averages                       (integer) 
#  image_flip_angle (in degrees)            (float) 
#  cardiac frequency   (bpm)                (integer) 
#  minimum RR-interval (in ms)              (integer) 
#  maximum RR-interval (in ms)              (integer) 
#  TURBO factor  <0=no turbo>               (integer) 
#  Inversion delay (in ms)                  (float) 
#  diffusion b value number    (imagekey!)  (integer) 
#  gradient orientation number (imagekey!)  (integer) 
#  contrast type                            (string) 
#  diffusion anisotropy type                (string) 
#  diffusion (ap, fh, rl)                   (3*float) 
#  label type (ASL)            (imagekey!)  (integer)
#
# === IMAGE INFORMATION ========================================================== 
#  sl ec  dyn ph ty    idx pix scan% rec size                (re)scale              window        angulation              offcentre        thick   gap   info      spacing     echo     dtime   ttime    diff  avg  flip    freq   RR-int  turbo delay b grad cont anis         diffusion       L.ty

  1   1    1  1 0 1     0  16   100  192  192     0.00000 2772.50085 5.76621E-002  1070  1860   0.00   0.00   0.00  -67.50  -11.09    9.04  1.000  0.000 0 1 0 2  1.000  1.000  60.00    0.00    0.00    0.00   2   90.00     0    0    0    83   0.0  1   1   -1    0    0.000    0.000    0.000  1 
  2   1    1  1 0 1     1  16   100  192  192     0.00000 2772.50085 5.76621E-002  4798  8341   0.00   0.00   0.00  -66.50  -11.09    9.04  1.000  0.000 0 1 0 2  1.000  1.000  60.00    0.00    0.00    0.00   2   90.00     0    0    0    83   0.0  1   1   -1    0    0.000    0.000    0.000  1 
  3   1    1  1 0 1     2  16   100  192  192     0.00000 2772.50085 5.76621E-002 10535 18314   0.00   0.00   0.00  -65.50  -11.09    9.04  1.000  0.000 0 1 0 2  1.000  1.000  60.00    0.00    0.00    0.00   2   90.00     0    0    0    83   0.0  1   1   -1    0    0.000    0.000    0.000  1 
  4   1    1  1 0 1     3  16   100  192  192     0.00000 2772.50085 5.76621E-002 25374 44108   0.00   0.00   0.00  -64.50  -11.09    9.04  1.000  0.000 0 1 0 2  1.000  1.000  60.00    0.00    0.00    0.00   2   90.00     0    0    0    83   0.0  1   1   -1    0    0.000    0.000    0.000  1 
  5   1    1  1 0 1     4  16   100  192  192     0.00000 2772.50085 5.76621E-002 36348 63184   0.00   0.00   0.00  -63.50  -11.09    9.04  1.000  0.000 0 1 0 2  1.000  1.000  60.00    0.00    0.00    0.00   2   90.00     0    0    0    83   0.0  1   1   -1    0    0.000    0.000    0.000  1 
  6   1    1  1 0 1     5  16   100  192  192     0.00000 2772.50085 5.76621E-002 60342 104894   0.00   0.00   0.00  -62.50  -11.09    9.04  1.000  0.000 0 1 0 2  1.000  1.000  60.00    0.00    0.00    0.00   2   90.00     0    0    0    83   0.0  1   1   -1    0    0.000    0.000    0.000  1 
  7   1    1  1 0 1     6  16   100  192  192     0.00000 2772.50085 5.76621E-002 389454 676994   0.00   0.00   0.00  -61.50  -11.09    9.04  1.000  0.000 0 1 0 2  1.000  1.000  60.00    0.00    0.00    0.00   2   90.00     0    0    0    83   0.0  1   1   -1    0    0.000    0.000    0.000  1 
  8   1    1  1 0 1     7  16   100  192  192     0.00000 2772.50085 5.76621E-002 952764 1656207   0.00   0.00   0.00  -60.50  -11.09    9.04  1.000  0.000 0 1 0 2  1.000  1.000  60.00    0.00    0.00    0.00   2   90.00     0    0    0    83   0.0  1   1   -1    0    0.000    0.000    0.000  1 
  9   1    1  1 0 1     8  16   100  192  192     0.00000 2772.50085 5.76621E-002 1143741 1988185   0.00   0.00   0.00  -59.50  -11.09    9.04  1.000  0.000 0 1 0 2  1.000  1.000  60.00    0.00    0.00    0.00   2   90.00     0    0    0    83   0.0  1   1   -1    0    0.000    0.000    0.000  1 
 10   1    1  1 0 1     9  16   100  192  192     0.00000 2772.50085 5.76621E-002 1165647 2026265   0.00   0.00   0.00  -58.50  -11.09    9.04  1.000  0.000 0 1 0 2  1.000  1.000  60.00    0.00    0.00    0.00   2   90.00     0    0    0    83   0.0  1   1   -1    0    0.000    0.000    0.000  1 
 11   1    1  1 0 1    10  16   100  192  192     0.00000 2772.50085 5.76621E-002 1173784 2040409   0.00   0.00   0.00  -57.50  -11.09    9.04  1.000  0.000 0 1 0 2  1.000  1.000  60.00    0.00    0.00    0.00   2   90.00     0    0    0    83   0.0  1   1   -1    0    0.000    0.000    0.000  1 
 12   1    1  1 0 1    11  16   100  192  192     0.00000 2772.50085 5.76621E-002 1185946 2061551   0.00   0.00   0.00  -56.50  -11.09    9.04  1.000  0.000 0 1 0 2  1.000  1.000  60.00    0.00    0.00    0.00   2   90.00     0    0    0    83   0.0  1   1   -1    0    0.000    0.000    0.000  1 
 13   1    1  1 0 1    12  16   100  192  192     0.00000 2772.50085 5.76621E-002 1186151 2061908   0.00   0.00   0.00  -55.50  -11.09    9.04  1.000  0.000 0 1 0 2  1.000  1.000  60.00    0.00    0.00    0.00   2   90.00     0    0    0    83   0.0  1   1   -1    0    0.000    0.000    0.000  1 
 14   1    1  1 0 1    13  16   100  192  192     0.00000 2772.50085 5.76621E-002 1161010 2018204   0.00   0.00   0.00  -54.50  -11.09    9.04  1.000  0.000 0 1 0 2  1.000  1.000  60.00    0.00    0.00    0.00   2   90.00     0    0    0    83   0.0  1   1   -1    0    0.000    0.000    0.000  1 
 15   1    1  1 0 1    14  16   100  192  192     0.00000 2772.50085 5.76621E-002 1130934 1965923   0.00   0.00   0.00  -53.50  -11.09    9.04  1.000  0.000 0 1 0 2  1.000  1.000  60.00    0.00    0.00    0.00   2   90.00     0    0    0    83   0.0  1   1   -1    0    0.000    0.000    0.000  1 
 16   1    1  1 0 1    15  16   100  192  192     0.00000 2772.50085 5.76621E-002 1119535 1946108   0.00   0.00   0.00  -52.50  -11.09    9.04  1.000  0.000 0 1 0 2  1.000  1.000  60.00    0.00    0.00    0.00   2   90.00     0    0    0    83   0.0  1   1   -1    0    0.000    0.000    0.000  1 
 17   1    1  1 0 1    16  16   100  192  192     0.00000 2772.50085 5.76621E-002 1103717 1918611   0.00   0.00   0.00  -51.50  -11.09    9.04  1.000  0.000 0 1 0 2  1.000  1.000  60.00    0.00    0.00    0.00   2   90.00     0    0    0    83   0.0  1   1   -1    0    0.000    0.000    0.000  1 
 18   1    1  1 0 1    17  16   100  192  192     0.00000 2772.50085 5.76621E-002 1117655 1942839   0.00   0.00   0.00  -50.50  -11.09    9.04  1.000  0.000 0 1 0 2  1.000  1.000  60.00    0.00    0.00    0.00   2   90.00     0    0    0    83   0.0  1   1   -1    0    0.000    0.000    0.000  1 
 19   1    1  1 0 1    18  16   100  192  192     0.00000 2772.50085 5.76621E-002 1110646 1930656   0.00   0.00   0.00  -49.50  -11.09    9.04  1.000  0.000 0 1 0 2  1.000  1.000  60.00    0.00    0.00    0.00   2   90.00     0    0    0    83   0.0  1   1   -1    0    0.000    0.000    0.000  1 
 20   1    1  1 0 1    19  16   100  192  192     0.00000 2772.50085 5.76621E-002 1104103 1919282   0.00   0.00   0.00  -48.50  -11.09    9.04  1.000  0.000 0 1 0 2  1.000  1.000  60.00    0.00    0.00    0.00   2   90.00     0    0    0    83   0.0  1   1   -1    0    0.000    0.000    0.000  1 
 21   1    1  1 0 1    20  16   100  192  192     0.00000 2772.50085 5.76621E-002 1099714 1911652   0.00   0.00   0.00  -47.50  -11.09    9.04  1.000  0.000 0 1 0 2  1.000  1.000  60.00    0.00    0.00    0.00   2   90.00     0    0    0    83   0.0  1   1   -1    0    0.000    0.000    0.000  1 
 22   1    1  1 0 1    21  16   100  192  192     0.00000 2772.50085 5.76621E-002 1104672 1920272   0.00   0.00   0.00  -46.50  -11.09    9.04  1.000  0.000 0 1 0 2  1.000  1.000  60.00    0.00    0.00    0.00   2   90.00     0    0    0    83   0.0  1   1   -1    0    0.000    0.000    0.000  1 
 23   1    1  1 0 1    22  16   100  192  192     0.00000 2772.50085 5.76621E-002 1101173 1914188   0.00   0.00   0.00  -45.50  -11.09    9.04  1.000  0.000 0 1 0 2  1.000  1.000  60.00    0.00    0.00    0.00   2   90.00     0    0    0    83   0.0  1   1   -1    0    0.000    0.000    0.000  1 
 24   1    1  1 0 1    23  16   100  192  192     0.00000 2772.50085 5.76621E-002 1095986 1905173   0.00   0.00   0.00  -44.50  -11.09    9.04  1.000  0.000 0 1 0 2  1.000  1.000  60.00    0.00    0.00    0.00   2   90.00     0    0    0    83   0.0  1   1   -1    0    0.000    0.000    0.000  1 
 25   1    1  1 0 1    24  16   100  192  192     0.00000 2772.50085 5.76621E-002 1122106 1950577   0.00   0.00   0.00  -43.50  -11.09    9.04  1.000  0.000 0 1 0 2  1.000  1.000  60.00    0.00    0.00    0.00   2   90.00     0    0    0    83   0.0  1   1   -1    0    0.000    0.000    0.000  1 
 26   1    1  1 0 1    25  16   100  192  192     0.00000 2772.50085 5.76621E-002 1117917 1943295   0.00   0.00   0.00  -42.50  -11.09    9.04  1.000  0.000 0 1 0 2  1.000  1.000  60.00    0.00    0.00    0.00   2   90.00     0    0    0    83   0.0  1   1   -1    0    0.000    0.000    0.000  1 
 27   1    1  1 0 1    26  16   100  192  192     0.00000 2772.50085 5.76621E-002 1108631 1927153   0.00   0.00   0.00  -41.50  -11.09    9.04  1.000  0.000 0 1 0 2  1.000  1.000  60.00    0.00    0.00    0.00   2   90.00     0    0    0    83   0.0  1   1   -1    0    0.000    0.000    0.000  1 
 28   1    1  1 0 1    27  16   100  192  192     0.00000 2772.50085 5.76621E-002 1108805 1927456   0.00   0.00   0.00  -40.50  -11.09    9.04  1.000  0.000 0 1 0 2  1.000  1.000  60.00    0.00    0.00    0.00   2   90.00     0    0    0    83   0.0  1   1   -1    0    0.000    0.000    0.000  1 
 29   1    1  1 0 1    28  16   100  192  192     0.00000 2772.50085 5.76621E-002 1100174 1912451   0.00   0.00   0.00  -39.50  -11.09    9.04  1.000  0.000 0 1 0 2  1.000  1.000  60.00    0.00    0.00    0.00   2   90.00     0    0    0    83   0.0  1   1   -1    0    0.000    0.000    0.000  1 
 30   1    1  1 0 1    29  16   100  192  192     0.00000 2772.50085 5.76621E-002 1102754 1916937   0.00   0.00   0.00  -38.50  -11.09    9.04  1.000  0.000 0 1 0 2  1.000  1.000  60.00    0.00    0.00    0.00   2   90.00     0    0    0    83   0.0  1   1   -1    0    0.000    0.000    0.000  1 
 31   1    1  1 0 1    30  16   100  192  192     0.00000 2772.50085 5.76621E-002 1104748 1920403   0.00   0.00   0.00  -37.50  -11.09    9.04  1.000  0.000 0 1 0 2  1.000  1.000  60.00    0.00    0.00    0.00   2   90.00     0    0    0    83   0.0  1   1   -1    0    0.000    0.000    0.000  1 
 32   1    1  1 0 1    31  16   100  192  192     0.00000 2772.50085 5.76621E-002 1111101 1931447   0.00   0.00   0.00  -36.50  -11.09    9.04  1.000  0.000 0 1 0 2  1.000  1.000  60.00    0.00    0.00    0.00   2   90.00     0    0    0    83   0.0  1   1   -1    0    0.000    0.000    0.000  1 
 33   1    1  1 0 1    32  16   100  192  192     0.00000 2772.50085 5.76621E-002 1107778 1925670   0.00   0.00   0.00  -35.50  -11.09    9.04  1.000  0.000 0 1 0 2  1.000  1.000  60.00    0.00    0.00    0.00   2   90.00     0    0    0    83   0.0  1   1   -1    0    0.000    0.000    0.000  1 
 34   1    1  1 0 1    33  16   100  192  192     0.00000 2772.50085 5.76621E-002 1105080 1920980   0.00   0.00   0.00  -34.50  -11.09    9.04  1.000  0.000 0 1 0 2  1.000  1.000  60.00    0.00    0.00    0.00   2   90.00     0    0    0    83   0.0  1   1   -1    0    0.000    0.000    0.000  1 
 35   1    1  1 0 1    34  16   100  192  192     0.00000 2772.50085 5.76621E-002 1106985 1924291   0.00   0.00   0.00  -33.50  -11.09    9.04  1.000  0.000 0 1 0 2  1.000  1.000  60.00    0.00    0.00    0.00   2   90.00     0    0    0    83   0.0  1   1   -1    0    0.000    0.000    0.000  1 
 36   1    1  1 0 1    35  16   100  192  192     0.00000 2772.50085 5.76621E-002 1102859 1917119   0.00   0.00   0.00  -32.50  -11.09    9.04  1.000  0.000 0 1 0 2  1.000  1.000  60.00    0.00    0.00    0.00   2   90.00     0    0    0    83   0.0  1   1   -1    0    0.000    0.000    0.000  1 
 37   1    1  1 0 1    36  16   100  192  192     0.00000 2772.50085 5.76621E-002 1117801 1943093   0.00   0.00   0.00  -31.50  -11.09    9.04  1.000  0.000 0 1 0 2  1.000  1.000  60.00    0.00    0.00    0.00   2   90.00     0    0    0    83   0.0  1   1   -1    0    0.000    0.000    0.000  1 
 38   1    1  1 0 1    37  16   100  192  192     0.00000 2772.50085 5.76621E-002 1110086 1929683   0.00   0.00   0.00  -30.50  -11.09    9.04  1.000  0.000 0 1 0 2  1.000  1.000  60.00    0.00    0.00    0.00   2   90.00     0    0    0    83   0.0  1   1   -1    0    0.000    0.000    0.000  1 
 39   1    1  1 0 1    38  16   100  192  192     0.00000 2772.50085 5.76621E-002 1104003 1919108   0.00   0.00   0.00  -29.50  -11.09    9.04  1.000  0.000 0 1 0 2  1.000  1.000  60.00    0.00    0.00    0.00   2   90.00     0    0    0    83   0.0  1   1   -1    0    0.000    0.000    0.000  1 
 40   1    1  1 0 1    39  16   100  192  192     0.00000 2772.50085 5.76621E-002 1102733 1916901   0.00   0.00   0.00  -28.50  -11.09    9.04  1.000  0.000 0 1 0 2  1.000  1.000  60.00    0.00    0.00    0.00   2   90.00     0    0    0    83   0.0  1   1   -1    0    0.000    0.000    0.000  1 
 41   1    1  1 0 1    40  16   100  192  192     0.00000 2772.50085 5.76621E-002 1105621 1921922   0.00   0.00   0.00  -27.50  -11.09    9.04  1.000  0.000 0 1 0 2  1.000  1.000  60.00    0.00    0.00    0.00   2   90.00     0    0    0    83   0.0  1   1   -1    0    0.000    0.000    0.000  1 
 42   1    1  1 0 1    41  16   100  192  192     0.00000 2772.50085 5.76621E-002 1103613 1918430   0.00   0.00   0.00  -26.50  -11.09    9.04  1.000  0.000 0 1 0 2  1.000  1.000  60.00    0.00    0.00    0.00   2   90.00     0    0    0    83   0.0  1   1   -1    0    0.000    0.000    0.000  1 
 43   1    1  1 0 1    42  16   100  192  192     0.00000 2772.50085 5.76621E-002 1099152 1910675   0.00   0.00   0.00  -25.50  -11.09    9.04  1.000  0.000 0 1 0 2  1.000  1.000  60.00    0.00    0.00    0.00   2   90.00     0    0    0    83   0.0  1   1   -1    0    0.000    0.000    0.000  1 
 44   1    1  1 0 1    43  16   100  192  192     0.00000 2772.50085 5.76621E-002 1100548 1913103   0.00   0.00   0.00  -24.50  -11.09    9.04  1.000  0.000 0 1 0 2  1.000  1.000  60.00    0.00    0.00    0.00   2   90.00     0    0    0    83   0.0  1   1   -1    0    0.000    0.000    0.000  1 
 45   1    1  1 0 1    44  16   100  192  192     0.00000 2772.50085 5.76621E-002 1101617 1914961   0.00   0.00   0.00  -23.50  -11.09    9.04  1.000  0.000 0 1 0 2  1.000  1.000  60.00    0.00    0.00    0.00   2   90.00     0    0    0    83   0.0  1   1   -1    0    0.000    0.000    0.000  1 
 46   1    1  1 0 1    45  16   100  192  192     0.00000 2772.50085 5.76621E-002 1098818 1910095   0.00   0.00   0.00  -22.50  -11.09    9.04  1.000  0.000 0 1 0 2  1.000  1.000  60.00    0.00    0.00    0.00   2   90.00     0    0    0    83   0.0  1   1   -1    0    0.000    0.000    0.000  1 
 47   1    1  1 0 1    46  16   100  192  192     0.00000 2772.50085 5.76621E-002 1098987 1910389   0.00   0.00   0.00  -21.50  -11.09    9.04  1.000  0.000 0 1 0 2  1.000  1.000  60.00    0.00    0.00    0.00   2   90.00     0    0    0    83   0.0  1   1   -1    0    0.000    0.000    0.000  1 
 48   1    1  1 0 1    47  16   100  192  192     0.00000 2772.50085 5.76621E-002 1090624 1895850   0.00   0.00   0.00  -20.50  -11.09    9.04  1.000  0.000 0 1 0 2  1.000  1.000  60.00    0.00    0.00    0.00   2   90.00     0    0    0    83   0.0  1   1   -1    0    0.000    0.000    0.000  1 
 49   1    1  1 0 1    48  16   100  192  192     0.00000 2772.50085 5.76621E-002 1093962 1901654   0.00   0.00   0.00  -19.50  -11.09    9.04  1.000  0.000 0 1 0 2  1.000  1.000  60.00    0.00    0.00    0.00   2   90.00     0    0    0    83   0.0  1   1   -1    0    0.000    0.000    0.000  1 
 50   1    1  1 0 1    49  16   100  192  192     0.00000 2772.50085 5.76621E-002 1092422 1898976   0.00   0.00   0.00  -18.50  -11.09    9.04  1.000  0.000 0 1 0 2  1.000  1.000  60.00    0.00    0.00    0.00   2   90.00     0    0    0    83   0.0  1   1   -1    0    0.000    0.000    0.000  1 
 51   1    1  1 0 1    50  16   100  192  192     0.00000 2772.50085 5.76621E-002 1090999 1896504   0.00   0.00   0.00  -17.50  -11.09    9.04  1.000  0.000 0 1 0 2  1.000  1.000  60.00    0.00    0.00    0.00   2   90.00     0    0    0    83   0.0  1   1   -1    0    0.000    0.000    0.000  1 
 52   1    1  1 0 1    51  16   100  192  192     0.00000 2772.50085 5.76621E-002 1084472 1885157   0.00   0.00   0.00  -16.50  -11.09    9.04  1.000  0.000 0 1 0 2  1.000  1.000  60.00    0.00    0.00    0.00   2   90.00     0    0    0    83   0.0  1   1   -1    0    0.000    0.000    0.000  1 
 53   1    1  1 0 1    52  16   100  192  192     0.00000 2772.50085 5.76621E-002 1086039 1887881   0.00   0.00   0.00  -15.50  -11.09    9.04  1.000  0.000 0 1 0 2  1.000  1.000  60.00    0.00    0.00    0.00   2   90.00     0    0    0    83   0.0  1   1   -1    0    0.000    0.000    0.000  1 
 54   1    1  1 0 1    53  16   100  192  192     0.00000 2772.50085 5.76621E-002 1081378 1879779   0.00   0.00   0.00  -14.50  -11.09    9.04  1.000  0.000 0 1 0 2  1.000  1.000  60.00    0.00    0.00    0.00   2   90.00     0    0    0    83   0.0  1   1   -1    0    0.000    0.000    0.000  1 
 55   1    1  1 0 1    54  16   100  192  192     0.00000 2772.50085 5.76621E-002 1083241 1883017   0.00   0.00   0.00  -13.50  -11.09    9.04  1.000  0.000 0 1 0 2  1.000  1.000  60.00    0.00    0.00    0.00   2   90.00     0    0    0    83   0.0  1   1   -1    0    0.000    0.000    0.000  1 
 56   1    1  1 0 1    55  16   100  192  192     0.00000 2772.50085 5.76621E-002 1073301 1865738   0.00   0.00   0.00  -12.50  -11.09    9.04  1.000  0.000 0 1 0 2  1.000  1.000  60.00    0.00    0.00    0.00   2   90.00     0    0    0    83   0.0  1   1   -1    0    0.000    0.000    0.000  1 
 57   1    1  1 0 1    56  16   100  192  192     0.00000 2772.50085 5.76621E-002 1078357 1874527   0.00   0.00   0.00  -11.50  -11.09    9.04  1.000  0.000 0 1 0 2  1.000  1.000  60.00    0.00    0.00    0.00   2   90.00     0    0    0    83   0.0  1   1   -1    0    0.000    0.000    0.000  1 
 58   1    1  1 0 1    57  16   100  192  192     0.00000 2772.50085 5.76621E-002 1075627 1869781   0.00   0.00   0.00  -10.50  -11.09    9.04  1.000  0.000 0 1 0 2  1.000  1.000  60.00    0.00    0.00    0.00   2   90.00     0    0    0    83   0.0  1   1   -1    0    0.000    0.000    0.000  1 
 59   1    1  1 0 1    58  16   100  192  192     0.00000 2772.50085 5.76621E-002 1072385 1864146   0.00   0.00   0.00   -9.50  -11.09    9.04  1.000  0.000 0 1 0 2  1.000  1.000  60.00    0.00    0.00    0.00   2   90.00     0    0    0    83   0.0  1   1   -1    0    0.000    0.000    0.000  1 
 60   1    1  1 0 1    59  16   100  192  192     0.00000 2772.50085 5.76621E-002 1065648 1852435   0.00   0.00   0.00   -8.50  -11.09    9.04  1.000  0.000 0 1 0 2  1.000  1.000  60.00    0.00    0.00    0.00   2   90.00     0    0    0    83   0.0  1   1   -1    0    0.000    0.000    0.000  1 
 61   1    1  1 0 1    60  16   100  192  192     0.00000 2772.50085 5.76621E-002 1061888 1845899   0.00   0.00   0.00   -7.50  -11.09    9.04  1.000  0.000 0 1 0 2  1.000  1.000  60.00    0.00    0.00    0.00   2   90.00     0    0    0    83   0.0  1   1   -1    0    0.000    0.000    0.000  1 
 62   1    1  1 0 1    61  16   100  192  192     0.00000 2772.50085 5.76621E-002 1076149 1870689   0.00   0.00   0.00   -6.50  -11.09    9.04  1.000  0.000 0 1 0 2  1.000  1.000  60.00    0.00    0.00    0.00   2   90.00     0    0    0    83   0.0  1   1   -1    0    0.000    0.000    0.000  1 
 63   1    1  1 0 1    62  16   100  192  192     0.00000 2772.50085 5.76621E-002 1069389 1858937   0.00   0.00   0.00   -5.50  -11.09    9.04  1.000  0.000 0 1 0 2  1.000  1.000  60.00    0.00    0.00    0.00   2   90.00     0    0    0    83   0.0  1   1   -1    0    0.000    0.000    0.000  1 
 64   1    1  1 0 1    63  16   100  192  192     0.00000 2772.50085 5.76621E-002 1064589 1850593   0.00   0.00   0.00   -4.50  -11.09    9.04  1.000  0.000 0 1 0 2  1.000  1.000  60.00    0.00    0.00    0.00   2   90.00     0    0    0    83   0.0  1   1   -1    0    0.000    0.000    0.000  1 
 65   1    1  1 0 1    64  16   100  192  192     0.00000 2772.50085 5.76621E-002 1062116 1846295   0.00   0.00   0.00   -3.50  -11.09    9.04  1.000  0.000 0 1 0 2  1.000  1.000  60.00    0.00    0.00    0.00   2   90.00     0    0    0    83   0.0  1   1   -1    0    0.000    0.000    0.000  1 
 66   1    1  1 0 1    65  16   100  192  192     0.00000 2772.50085 5.76621E-002 1056988 1837380   0.00   0.00   0.00   -2.50  -11.09    9.04  1.000  0.000 0 1 0 2  1.000  1.000  60.00    0.00    0.00    0.00   2   90.00     0    0    0    83   0.0  1   1   -1    0    0.000    0.000    0.000  1 
 67   1    1  1 0 1    66  16   100  192  192     0.00000 2772.50085 5.76621E-002 1057020 1837437   0.00   0.00   0.00   -1.50  -11.09    9.04  1.000  0.000 0 1 0 2  1.000  1.000  60.00    0.00    0.00    0.00   2   90.00     0    0    0    83   0.0  1   1   -1    0    0.000    0.000    0.000  1 
 68   1    1  1 0 1    67  16   100  192  192     0.00000 2772.50085 5.76621E-002 1053191 1830780   0.00   0.00   0.00   -0.50  -11.09    9.04  1.000  0.000 0 1 0 2  1.000  1.000  60.00    0.00    0.00    0.00   2   90.00     0    0    0    83   0.0  1   1   -1    0    0.000    0.000    0.000  1 
 69   1    1  1 0 1    68  16   100  192  192     0.00000 2772.50085 5.76621E-002 1048952 1823412   0.00   0.00   0.00    0.50  -11.09    9.04  1.000  0.000 0 1 0 2  1.000  1.000  60.00    0.00    0.00    0.00   2   90.00     0    0    0    83   0.0  1   1   -1    0    0.000    0.000    0.000  1 
 70   1    1  1 0 1    69  16   100  192  192     0.00000 2772.50085 5.76621E-002 1047148 1820276   0.00   0.00   0.00    1.50  -11.09    9.04  1.000  0.000 0 1 0 2  1.000  1.000  60.00    0.00    0.00    0.00   2   90.00     0    0    0    83   0.0  1   1   -1    0    0.000    0.000    0.000  1 
 71   1    1  1 0 1    70  16   100  192  192     0.00000 2772.50085 5.76621E-002 1046025 1818324   0.00   0.00   0.00    2.50  -11.09    9.04  1.000  0.000 0 1 0 2  1.000  1.000  60.00    0.00    0.00    0.00   2   90.00     0    0    0    83   0.0  1   1   -1    0    0.000    0.000    0.000  1 
 72   1    1  1 0 1    71  16   100  192  192     0.00000 2772.50085 5.76621E-002 1038980 1806077   0.00   0.00   0.00    3.50  -11.09    9.04  1.000  0.000 0 1 0 2  1.000  1.000  60.00    0.00    0.00    0.00   2   90.00     0    0    0    83   0.0  1   1   -1    0    0.000    0.000    0.000  1 
 73   1    1  1 0 1    72  16   100  192  192     0.00000 2772.50085 5.76621E-002 1044122 1815016   0.00   0.00   0.00    4.50  -11.09    9.04  1.000  0.000 0 1 0 2  1.000  1.000  60.00    0.00    0.00    0.00   2   90.00     0    0    0    83   0.0  1   1   -1    0    0.000    0.000    0.000  1 
 74   1    1  1 0 1    73  16   100  192  192     0.00000 2772.50085 5.76621E-002 1040231 1808252   0.00   0.00   0.00    5.50  -11.09    9.04  1.000  0.000 0 1 0 2  1.000  1.000  60.00    0.00    0.00    0.00   2   90.00     0    0    0    83   0.0  1   1   -1    0    0.000    0.000    0.000  1 
 75   1    1  1 0 1    74  16   100  192  192     0.00000 2772.50085 5.76621E-002 1025656 1782915   0.00   0.00   0.00    6.50  -11.09    9.04  1.000  0.000 0 1 0 2  1.000  1.000  60.00    0.00    0.00    0.00   2   90.00     0    0    0    83   0.0  1   1   -1    0    0.000    0.000    0.000  1 
 76   1    1  1 0 1    75  16   100  192  192     0.00000 2772.50085 5.76621E-002 1027699 1786468   0.00   0.00   0.00    7.50  -11.09    9.04  1.000  0.000 0 1 0 2  1.000  1.000  60.00    0.00    0.00    0.00   2   90.00     0    0    0    83   0.0  1   1   -1    0    0.000    0.000    0.000  1 
 77   1    1  1 0 1    76  16   100  192  192     0.00000 2772.50085 5.76621E-002 1023799 1779689   0.00   0.00   0.00    8.50  -11.09    9.04  1.000  0.000 0 1 0 2  1.000  1.000  60.00    0.00    0.00    0.00   2   90.00     0    0    0    83   0.0  1   1   -1    0    0.000    0.000    0.000  1 
 78   1    1  1 0 1    77  16   100  192  192     0.00000 2772.50085 5.76621E-002 1019934 1772969   0.00   0.00   0.00    9.50  -11.09    9.04  1.000  0.000 0 1 0 2  1.000  1.000  60.00    0.00    0.00    0.00   2   90.00     0    0    0    83   0.0  1   1   -1    0    0.000    0.000    0.000  1 
 79   1    1  1 0 1    78  16   100  192  192     0.00000 2772.50085 5.76621E-002 1010931 1757319   0.00   0.00   0.00   10.50  -11.09    9.04  1.000  0.000 0 1 0 2  1.000  1.000  60.00    0.00    0.00    0.00   2   90.00     0    0    0    83   0.0  1   1   -1    0    0.000    0.000    0.000  1 
 80   1    1  1 0 1    79  16   100  192  192     0.00000 2772.50085 5.76621E-002 1003729 1744801   0.00   0.00   0.00   11.50  -11.09    9.04  1.000  0.000 0 1 0 2  1.000  1.000  60.00    0.00    0.00    0.00   2   90.00     0    0    0    83   0.0  1   1   -1    0    0.000    0.000    0.000  1 
 81   1    1  1 0 1    80  16   100  192  192     0.00000 2772.50085 5.76621E-002 999930 1738196   0.00   0.00   0.00   12.50  -11.09    9.04  1.000  0.000 0 1 0 2  1.000  1.000  60.00    0.00    0.00    0.00   2   90.00     0    0    0    83   0.0  1   1   -1    0    0.000    0.000    0.000  1 

# === END OF DATA DESCRIPTION FILE ======================